WS_[m/s]	RotSpeed_[rpm]	BldPitch_[deg]	GenSpeed_[rpm]	GenPower_[kW]	GenTorque_[kN-m]	RtAeroFxh_[kN]	RtAeroMxh_[kN-m]	RotThrust_[kN]	RotTorq_[kN-m]	TTDspFA_[m]	TTDspSS_[m]	RtAeroCp_[-]	RtAeroCt_[-]	RtTSR_[-]
2.0	5.1983	0.0	504.2374	0.0	0.0	34.0562481	-0.46205040000000003	127.551	-0.068	0.0049	0.0001	-0.0044	1.1361	17.2897
2.25	5.7889	0.0	561.523	0.0	0.0	43.688773	3.8263396	137.2791	0.4229	0.0103	0.0001	0.0273	1.152	17.1192
2.5	6.4548	0.0	626.111	0.0	0.0	53.8847916	3.2799054	147.5672	0.3628	0.0159	0.0001	0.019	1.1514	17.1849
2.75	6.9209	0.0	671.3302	8.5209	0.1284	64.6615791	12.6058576	158.4791	12.4569	0.0219	-0.0	0.059	1.141	16.7457
3.0	6.9547	0.0	674.6053	29.6514	0.4446	73.6388929	43.2984875	167.5705	43.1186	0.0271	-0.0003	0.1572	1.0921	15.4276
3.25	6.9936	0.0	678.3774	54.233	0.8087	83.0311428	78.65089789999999	177.0653	78.4386	0.0324	-0.0007	0.2259	1.0491	14.32
3.5	7.0384	0.0	682.7287	82.9333	1.2288	92.9069946	119.4094207	187.0562	119.1929	0.0381	-0.0012	0.2764	1.0122	13.3824
3.75	7.0896	0.0	687.6933	116.1141	1.708	103.3059035	165.9454465	197.5635	165.679	0.044	-0.0017	0.3145	0.9803	12.5808
4.0	7.1483	0.0	693.3871	154.7527	2.2577	114.159531	219.077029	208.574	218.9752	0.0502	-0.0023	0.3452	0.9524	11.8941
4.25	7.2148	0.0	699.8316	199.2395	2.88	125.5886958	279.5373626	220.097	279.3252	0.0568	-0.003	0.3705	0.9279	11.2976
4.5	7.2882	0.0	706.9554	249.3124	3.5675	137.50249789999998	346.0027915	232.1998	345.999	0.0636	-0.0037	0.3906	0.9067	10.7818
4.75	7.3683	0.0	714.7237	305.0217	4.3171	150.0660614	419.3424974	244.8257	418.7912	0.0706	-0.0046	0.4064	0.8874	10.3221
5.0	7.4553	0.0	723.1643	366.9197	5.1326	162.9652687	497.6842597	257.9489	497.7897	0.0781	-0.0055	0.4188	0.8702	9.9248
5.25	7.5492	0.0	732.273	435.1407	6.0112	176.654675	583.9125694	271.7138	583.1649	0.0857	-0.0065	0.4293	0.855	9.5673
5.5	7.6498	0.0	742.0289	510.0594	6.9534	190.587953	674.3046436	285.8962	674.407	0.0939	-0.0075	0.4377	0.8414	9.2595
5.75	7.7567	0.0	752.4024	591.6477	7.9545	205.30162049999998	772.4362712	300.7131	771.668	0.1021	-0.0086	0.4443	0.8285	8.9759
6.0	7.8698	0.0	763.3754	680.2367	9.0141	220.27916	874.4366102	315.9056	874.3376	0.1108	-0.0098	0.4496	0.8169	8.73
6.25	7.9888	0.0	774.9128	775.8192	10.1276	235.84814980000002	982.6217038	331.6382	982.3843	0.1196	-0.011	0.4537	0.8061	8.5072
6.5	8.1131	0.0	786.9683	878.4235	11.2914	251.8459179	1095.7871953000001	347.7936	1095.2628	0.1287	-0.0123	0.4567	0.7958	8.3062
6.75	8.2427	0.0	799.5416	988.3701	12.5048	268.2255973	1213.1200019	364.4236	1213.0166	0.1381	-0.0137	0.4592	0.7865	8.1288
7.0	8.3771	0.0	812.58	1105.5782	13.7633	285.20130459999996	1336.1656911	381.4968	1335.1543	0.1477	-0.0151	0.4603	0.777	7.9622
7.25	8.5167	0.0	826.1154	1230.6868	15.0697	302.6033379	1463.1326403	399.0989	1461.8509	0.1576	-0.0165	0.4614	0.7687	7.8161
7.5	8.6612	0.0	840.1386	1364.1192	16.4248	320.3275544	1592.7348296999999	417.1175	1593.2438	0.1679	-0.018	0.4618	0.7609	7.6853
7.75	8.811	0.0	854.6686	1506.1939	17.8272	338.8661663	1729.0777943	435.8499	1729.1388	0.1784	-0.0195	0.4623	0.7539	7.5652
8.0	8.9659	0.0	869.6904	1657.2981	19.2768	358.0431499	1870.4441189	455.1972	1869.8434	0.1892	-0.0211	0.4627	0.7476	7.4567
8.25	9.2328	0.0	895.5857	1816.2048	20.5143	380.2505736	1990.4870829000001	477.6968	1989.9143	0.2018	-0.0225	0.4623	0.7467	7.4445
8.5	9.5099	0.0	922.4636	1984.7002	21.7643	403.3002404	2111.7794959	500.9512	2111.1995	0.2148	-0.0239	0.462	0.7462	7.4413
8.75	9.7865	0.0	949.2954	2162.9325	23.0484	426.88468109999997	2235.7422998	524.8367	2235.583	0.2282	-0.0253	0.462	0.7461	7.4405
9.0	10.0626	0.0	976.0681	2351.1478	24.3668	451.1782301	2364.1007211	549.4067	2363.5756	0.2419	-0.0267	0.4616	0.7454	7.4357
9.25	10.3381	0.0	1002.7908	2549.6207	25.7196	475.9228463	2494.8891590999997	574.3715	2494.7652	0.256	-0.0282	0.4612	0.7446	7.4314
9.5	10.6131	0.0	1029.4713	2758.5556	27.1061	501.2595123	2628.9331235000004	600.0636	2629.1573	0.2703	-0.0297	0.461	0.7441	7.4286
9.75	10.8875	0.0	1056.0823	2978.0703	28.5257	527.3164583	2767.8268243999996	626.3761	2767.0203	0.285	-0.0313	0.4605	0.7432	7.4225
10.0	11.1613	0.0	1082.644	3208.4636	29.9786	553.8029999	2909.0127796	653.1555	2907.5844	0.2999	-0.0329	0.4601	0.7423	7.4172
10.25	11.4346	0.0	1109.1548	3449.917	31.4641	580.6902541999999	3052.2051672000002	680.4631	3051.8499	0.3152	-0.0345	0.4598	0.7416	7.4136
10.5	11.707	0.0	1135.5818	3702.4696	32.9816	608.2428560000001	3199.9344854	708.3156	3199.3559	0.3307	-0.0362	0.4592	0.7405	7.4069
10.75	11.7704	0.0	1141.729	3972.1597	35.1935	630.5759486	3415.6265118	730.7016	3413.6207	0.3435	-0.0387	0.4591	0.7323	7.2706
11.0	11.8281	0.0	1147.3341	4252.6979	37.495	652.7441894	3637.5533558	753.3728	3636.9893	0.3562	-0.0412	0.4591	0.7247	7.1408
11.25	11.887	0.0	1153.0269	4542.3081	39.8507	675.3497644	3867.9738963	775.9981	3865.7487	0.369	-0.0438	0.4587	0.7169	7.0143
11.5	11.947	0.0	1158.8631	4840.0003	42.2486	697.6806772	4098.8602728	798.6914	4098.6251	0.3819	-0.0464	0.4578	0.7093	6.8963
11.75	12.1	1.1487	1173.7013	5000.0059	43.0935	667.9212405	4180.7636215	768.6167	4180.0905	0.3656	-0.0476	0.4428	0.6498	6.8385
12.0	12.1	2.4931	1173.7005	5000.0059	43.0935	618.5771866	4180.7220797	718.7239	4180.0398	0.3384	-0.0479	0.4151	0.5761	6.7
12.25	12.1	3.4797	1173.7004	5000.0055	43.0935	585.2112275000001	4180.7007762	684.991	4180.0055	0.3201	-0.048	0.3899	0.5226	6.5657
12.5	12.1	4.3047	1173.6991	4999.9963	43.0936	559.7193011	4180.7092976	659.2179	4179.9951	0.3062	-0.0481	0.3667	0.4797	6.436
12.75	12.1	5.0313	1173.6991	4999.9932	43.0936	537.9518274	4180.7142684	637.2124	4180.0042	0.2944	-0.0482	0.3454	0.4429	6.3111
13.0	12.1	5.6907	1173.6986	4999.9943	43.0936	519.1830224	4180.7085875	618.239	4180.0277	0.2843	-0.0483	0.3257	0.411	6.1908
13.25	12.1	6.3008	1173.6981	4999.9932	43.0936	502.6193629	4180.724565099999	601.4949	4180.0667	0.2754	-0.0484	0.3075	0.3829	6.0748
13.5	12.1	6.8727	1173.6981	4999.9943	43.0936	487.76896370000003	4180.7320213	586.4838	4180.1033	0.2674	-0.0484	0.2906	0.3579	5.963
13.75	12.1	7.4139	1173.6983	4999.9978	43.0936	474.295636	4180.7234999	572.8666	4180.1396	0.2602	-0.0485	0.275	0.3353	5.8552
14.0	12.1	7.9298	1173.699	4999.9974	43.0936	461.96101219999997	4180.723855	560.4008	4180.1621	0.2537	-0.0486	0.2604	0.315	5.7511
14.25	12.1	8.4243	1173.6995	4999.9993	43.0936	450.58634379999995	4180.727405600001	548.9048	4180.1769	0.2477	-0.0487	0.2469	0.2965	5.6506
14.5	12.1	8.9017	1173.7004	5000.0009	43.0936	439.9624734	4180.7227898	538.1678	4180.1809	0.2421	-0.0487	0.2343	0.2796	5.5536
14.75	12.1	9.364	1173.701	5000.0055	43.0936	429.9714706	4180.7075223	528.0712	4180.1739	0.2369	-0.0488	0.2226	0.264	5.4597
15.0	12.1	9.8169	1173.7015	5000.0078	43.0936	420.3121334	4180.7000661	518.3066	4180.1504	0.2319	-0.0489	0.2116	0.2495	5.369
15.25	12.1	10.2577	1173.7019	5000.0082	43.0936	411.1689324	4180.6911897	509.065	4180.1245	0.2272	-0.0489	0.2013	0.2361	5.2811
15.5	12.1	10.6883	1173.7022	5000.009	43.0936	402.44426419999996	4180.6698862	500.2478	4180.0946	0.2227	-0.049	0.1917	0.2237	5.1961
15.75	12.1	11.107	1173.702	5000.0105	43.0936	394.2730623	4180.6649154	491.9891	4180.0714	0.2186	-0.0491	0.1827	0.2122	5.1138
16.0	12.1	11.5169	1173.7019	5000.0101	43.0935	386.47325390000003	4180.6475175000005	484.1101	4180.0492	0.2146	-0.0491	0.1743	0.2016	5.034
16.25	12.1	11.916	1173.7024	5000.0105	43.0936	379.18026280000004	4180.6020701	476.7462	4180.0432	0.211	-0.0492	0.1664	0.1917	4.9567
16.5	12.1	12.3062	1173.7022	5000.0078	43.0935	372.298938	4180.5868026	469.797	4180.0401	0.2076	-0.0492	0.1589	0.1826	4.8816
16.75	12.1	12.6889	1173.7016	5000.0078	43.0935	365.77963339999997	4180.5434856	463.2141	4180.0512	0.2044	-0.0493	0.1519	0.174	4.8088
17.0	12.1	13.0641	1173.7015	5000.0051	43.0935	359.5856182	4180.4955527	456.9643	4180.0727	0.2014	-0.0493	0.1453	0.1661	4.7382
17.25	12.1	13.4312	1173.7018	5000.0063	43.0935	353.76953610000004	4180.4309322	451.0957	4180.0949	0.1986	-0.0494	0.139	0.1587	4.6695
17.5	12.1	13.7812	1173.7017	5000.0074	43.0935	348.9828924	4180.3737679	446.2667	4180.1147	0.1964	-0.0494	0.1332	0.1521	4.6028
17.75	12.1	14.1251	1173.7024	5000.0059	43.0935	344.4823008	4180.2896191	441.7231	4180.1282	0.1943	-0.0495	0.1276	0.1459	4.538
18.0	12.1	14.4685	1173.7028	5000.0086	43.0935	340.1303211	4180.1596678999995	437.3318	4180.1315	0.1924	-0.0495	0.1224	0.1401	4.475
18.25	12.1	14.8068	1173.7033	5000.0082	43.0935	335.9708774	4179.9938559	433.1386	4180.1312	0.1906	-0.0496	0.1174	0.1346	4.4137
18.5	12.1	15.1401	1173.7036	5000.0124	43.0935	332.055033	4179.7513513	429.1963	4180.1174	0.1889	-0.0496	0.1127	0.1295	4.3541
18.75	12.1	15.4686	1173.7041	5000.0124	43.0935	328.3281823	4179.4673049	425.4471	4180.0989	0.1873	-0.0497	0.1082	0.1247	4.2961
19.0	12.1	15.7929	1173.7044	5000.0101	43.0935	324.7567012	4179.1466875999995	421.8582	4180.0687	0.1859	-0.0497	0.104	0.1201	4.2395
19.25	12.1	16.1131	1173.7038	5000.0109	43.0935	321.4363942	4178.8558950999995	418.5219	4180.0351	0.1846	-0.0498	0.1	0.1158	4.1844
19.5	12.1	16.4297	1173.7042	5000.0124	43.0935	318.2983781	4178.7422766	415.3592	4179.9924	0.1833	-0.0498	0.0962	0.1117	4.1307
19.75	12.1	16.7428	1173.703	5000.0055	43.0935	315.297584	4178.8207444	412.316	4179.9531	0.1822	-0.0499	0.0926	0.1079	4.0783
20.0	12.1	17.0527	1173.702	5000.0001	43.0935	312.5123235	4179.0107004	409.4842	4179.9141	0.1812	-0.0499	0.0892	0.1043	4.0272
20.25	12.1	17.3597	1173.7007	4999.9974	43.0935	309.9070649	4179.2098879	406.8341	4179.8846	0.1803	-0.05	0.0859	0.1009	3.9774
20.5	12.1	17.6641	1173.6998	4999.9897	43.0935	307.4096548	4179.4690802000005	404.2919	4179.8688	0.1794	-0.05	0.0828	0.0976	3.9288
20.75	12.1	17.9663	1173.6983	4999.9839	43.0935	304.9452151	4179.6100381999995	401.8029	4179.8725	0.1786	-0.0501	0.0798	0.0945	3.8815
21.0	12.1	18.2659	1173.6968	4999.9828	43.0935	302.43821360000004	4179.7016432	399.2721	4179.8997	0.1777	-0.0501	0.077	0.0915	3.8352
21.25	12.1	18.5701	1173.6942	4999.9774	43.0936	299.8914297	4179.5251794	396.7133	4180.0516	0.1768	-0.0501	0.0743	0.0886	3.79
21.5	12.1	18.8726	1173.6967	4999.9755	43.0935	297.4793611	4180.3393272	394.2682	4180.0176	0.1759	-0.0501	0.0718	0.0859	3.7459
21.75	12.1	19.1708	1173.6959	4999.9755	43.0935	295.1608084	4180.0421436999995	391.9574	4180.1651	0.1751	-0.0501	0.0693	0.0833	3.7028
22.0	12.0999	19.477	1173.6881	4999.977	43.0938	292.78356310000004	4180.7291809	389.5332	4180.2397	0.1742	-0.0501	0.067	0.0808	3.6606
22.25	12.1	19.7839	1173.6965	4999.9897	43.0936	290.4067537	4179.8404708	387.1695	4180.2451	0.1734	-0.0502	0.0648	0.0783	3.6195
22.5	12.0999	20.0864	1173.6985	4999.9978	43.0936	288.29724949999996	4181.5905515	385.0129	4180.237	0.1726	-0.0501	0.0627	0.076	3.5791
22.75	12.1	20.3898	1173.7027	4999.9755	43.0933	286.054665	4178.9506956000005	382.8087	4179.98	0.1718	-0.0501	0.0606	0.0738	3.5398
23.0	12.0999	20.6945	1173.695	4999.9947	43.0937	284.09459009999995	4181.2589273	380.7974	4179.9289	0.1712	-0.0501	0.0587	0.0717	3.5012
23.25	12.1	21.0023	1173.6944	4999.9928	43.0937	281.945358	4179.8358551	378.6848	4179.8449	0.1706	-0.0502	0.0568	0.0696	3.4635
23.5	12.0999	21.2929	1173.6877	4999.9793	43.0938	280.1875197	4180.3890354	376.9017	4179.9262	0.1702	-0.0502	0.055	0.0677	3.4265
23.75	12.1	21.5839	1173.6991	4999.9782	43.0934	278.4004712	4180.037883	375.0887	4179.8234	0.1699	-0.0503	0.0533	0.0659	3.3905
24.0	12.1	21.8757	1173.6949	4999.977	43.0935	276.58110619999997	4179.584474	373.3315	4179.9625	0.1696	-0.0504	0.0516	0.0641	3.3551
24.25	12.1	22.154	1173.6951	4999.9816	43.0936	275.0858864	4181.6825115	371.7447	4180.0892	0.1694	-0.0504	0.0501	0.0625	3.3204
24.5	12.1	22.4394	1173.692	4999.9847	43.0937	273.2769303	4179.1559191	370.0566	4180.2122	0.1691	-0.0504	0.0485	0.0608	3.2865
24.75	12.0997	22.7252	1173.6645	5000.0386	43.0952	271.462688	4175.4345567	368.3627	4180.6019	0.1688	-0.0505	0.047	0.0592	3.2532
25.0	12.1	23.0136	1173.7004	4999.992	43.0935	269.8966772	4178.7525732	366.6254	4180.1312	0.1686	-0.0505	0.0457	0.0577	3.2207
